173568,173504,173888,173184,172992,174080,174208,174336,172864,172672,172096,171904,172992,173888,174912,174592,174016,173760,173824,174912,174016,174528,174272,174912,174336,175040,174144,175104,174464,173504,173504,174272,173760,173312,172288,174080,173760,172864,171904,172352,172224,172800,173056,174144,175424,175040,174720,173696,175104,176192,176640,177600,177920,177152,176576,176000,177152,176832,177408,177152,176832,175488,176064,175680,175232,175680,176384,176000,175936,175424,175360,172544,163904,153536,150848,160192,179456,220160,265024,292032,293760,253696,205248,168576,146432,157952,157952,167680,170624,171072,168832,164288,159168,156416,156096,156928,158208,158976,160832,159744,159872,160896,161664,161984,162560,161408,163072,162304,164160,165632,166016,164800,165696,166912,166528,166080,166848,165888,166336,167168,167616,165824,165824,165056,165056,165248,165568,165312,165376,165888,165248,163520,162560,162432,161472,161472,160640,159872,159808,158912,159872,159744,159424,160960,161280,163584,163584,165568,167936,170432,172160,175232,180032,181952,184576,186560,190336,190784,193024,192960,194176,193920,193856,194624,193984,192256,190464,190144,189248,188160,188608,187520,186304,185856,186560,185856,186240,186560,186112,186240,185216,183744,182400,181760,182208,182272,181952,181760,181120,181440,180544,179776,181248,180992,181824,181504,181184,182272,182400,182080,181696,180800,180288,179776,180096,181056,180992,181760,181824,179776,179456,179136,179904,181504,180672,180288,179200,178496,180544,179584,178240,177728,177920,178112,179264,179648,178048,177600,179264,179776,178240,179200,177856,176896,177088,177216,177344,176640,176960,176192,177472,177472,178368,177408,176832,177024,176704,177472,177728,178112,178944,178496,177728,177344,177856,177920,178368,177472,177856,177216,177472,177280,178368,177600,177024,177984,177536,177728,177472,177600,178048,179200,179712,179008,178112,178240,178304,178048,176576,176320,176384,176704,177600,176576,176960,176896,177600,180224,180800,181120,181120,180672,181184,182016,181376,180544,180800,181184,180224,179904,179264,178880,177984,178048,177920,178944,178368,179200,178880,177728,177984,177920,177408,175680,166016,154496,150272,159552,178560,218048,267968,293824,294400,254592,201472,164736,139392,148160,153664,165184,168896,174592,172352,171776,165824,164096,161920,160832,161216,163136,162816,163840,163712,165504,164928,165632,165824,166272,165824,167680,167296,167360,167360,168256,168128,169088,169216,169408,169344,168448,169408,169152,169152,169024,169216,169792,168768,168960,168960,168320,168000,167104,166720,166848,165312,164864,163904,163136,163904,162688,161984,162432,163200,161920,163072,162816,164352,165696,167360,169344,172032,173248,176384,178176,181056,182976,185152,187072,188288,189376,189888,190144,191296,191424,191552,192320,191808,189696,189184,189440,189120,189312,187840,186304,186560,186368,186048,184832,185088,184768,184192,184192,184640,183808,183296,182784,183360,183616,183296,183616,183680,182336,182272,182400,182848,183168,183872,183168,183104,183168,183296,182464,181760,182272,181376,180928,180736,181312,180480,180416,180288,179904,179904,179904,178688,178368,178560,179392,179584,179328,179392,178560,178752,178624,178752,178880,179200,179456,178240,178048,177344,178240,177408,177280,177600,177344,177088,177536,177216,176960,176640,177024,176256,176000,176128,176064,175936,176192,175552,176128,176320,175680,175872,176064,175680,176256,175936,176064,176064,175680,176000,175552,175808,176256,175936,175680,175872,176192,175680,175936,177280,176256,176320,175936,175424,175680,175872,175936,176128,175040,174912,175424,175488,176128,174784,175424,175552,175488,174976,176256,175424,174272,175488,176064,175296,176192,175808,176448,178304,178496,179456,179520,179072,179072,179648,178944,178624,178752,177984,178304,178048,177152,176640,177152,176384,175936,176128,175936,175552,175616,175552,175104,175488,175296,172032,161856,151680,147456,156480,176640,219136,268032,297600,302784,272832,227520,186624,161280,162752,162304,172288,172352,171520,166784,161280,155392,152896,152192,153536,154880,155776,156480,156672,157824,158336,159360,159552,160192,162304,162240,162048,162688,163264,163648,164480,165248,165632,165248,165568,165120,164224,164864,164736,165504,165376,164992,165120,164608,164288,163712,164288,165056,164480,163968,163008,161792,161152,159872,159232,159040,158336,158976,158592,158720,159744,159552,160768,162304,163712,165120,167616,169920,172992,175360,178176,180288,182976,186560,188224,189696,191872,193152,193600,194304,194048,193984,193728,193600,192448,192256,192256,192192,190272,190016,188544,187840,186688,185856,185024,184704,183488,183232,182720,183104,182720,182272,182208,181568,180800,181376,182464,182464,181952,181504,180928,181568,180672,181056,181440,180800,180672,180288,181056,181440,181376,181632,181824,181440,181120,181696,180992,179776,180672,180096,179712,180096,179008,179712,179072,179648,180224,180928,180032,180736,180480,179584,179200,178688,178560,177984,179008,178176,177152,177536,176512,177024,178048,177600,176960,177216,177728,177344,177536,177280,177856,177984,177600,177664,178560,178048,178048,177856,178176,177344,178496,178688,178368,177600,178240,177280,177344,177536,177920,177984,177280,177728,177216,178240,177664,177728,177984,178240,178048,177536,177472,177536,177344,176512,177664,177984,177984,177600,178176,178496,177536,178432,178752,178944,178624,178048,178688,178304,178176,178624,178048,178368,178432,177600,177472,177344,177216,175872,175872,175168,176000,177088,177152,176896,178112,179264,180480,181184,182080,181824,182272,182336,181760,179072,179520,178176,179008,178944,177472,176704,176000,176384,175616,176640,176384,175808,176640,176256,176448,177152,176960,171008,160640,150976,150848,161280,186944,231104,273664,294464,287936,247744,205376,168576,156416,160128,160512,170176,168192,169408,162624,158720,152384,152320,150912,153408,153344,153728,154880,157056,157568,158976,159104,159872,158784,159424,159872,161472,160832,161216,160128,161280,161984,162112,162048,163264,162496,161728,162560,162880,164096,164864,163648,162880,162880,164672,163520,163008,161920,160448,161472,160704,159808,159104,159040,158592,157952,158144,157632,158720,158720,157760,157504,158528,160000,162048,163200,166400,168640,171648,175616,177152,180224,182272,185344,186048,187584,189440,190272,190656,191488,191488,192064,191680,190912,190016,189952,190528,188736,187776,187456,187840,186496,184128,182784,183104,183296,182848,183488,183232,182720,182592,182336,181696,181760,183168,182400,181632,181632,182272,182656,182016,181952,182336,181824,182080,182656,182336,181952,182272,182208,182528,183488,184128,183104,183488,182528,183296,182080,180928,180800,180608,181632,181568,181248,181312,181440,180672,180480,179968,179200,179968,180160,180544,179712,179008,179200,179648,180096,180032,179712,179456,179072,179456,179200,179520,178752,179008,179584,179456,180032,179200,179264,178304,179072,180096,181120,181376,180544,180288,180544,180736,180608,179904,180544,179968,179136,179008,179200,179776,179328,179200,178624,179264,178240,179136,178368,178560,177088,177408,178432,179520,179648,178752,177920,177152,177088,175872,178240,178624,178176,177600,178304,179264,178880,178112,177024,176448,176704,176960,176448,176256,176704,177344,177024,177728,177856,179136,180288,181504,180800,182464,182336,181312,180480,180224,179584,179264,178496,179328,178368,177920,177728,178048,177664,176960,177344,178432,178304,177536,177920,177984,178368,178624,175552,165568,153984,151744,161600,183488,227904,276800,297792,291392,241728,190912,154688,135936,147904,152704,164928,169024,176448,174464,174080,165952,164800,161088,163584,162624,163968,164288,166592,166528,167808,165504,166976,167680,167936,168256,168192,167808,168768,169216,169280,170112,170432,171072,171328,171520,171072,170496,172224,171264,172096,171968,172160,172480,170880,171264,171008,170368,168320,168768,169152,169216,168576,167680,165952,166016,166016,166848,165888,165824,166592,166656,166592,168192,169280,170048,171712,174016,176128,177728,180224,183104,186688,188288,189952,190592,191488,192640,192512,192960,192192,193280,191424,189952,189760,189696,188928,189440,188736,188672,186496,187456,187264,186304,186112,185152,185472,184384,184256,185088,183808,184320,184128,184064,184000,183488,184448,184320,184064,184384,183808,184320,183232,184000,184064,183104,183296,183616,182848,181696,182016,181504,180672,180672,181760,181504,181760,181696,182272,181504,180992,181696,181824,181504,181696,181824,182016,181824,180608,180032,180608,179904,180608,181184,180608,180096,180800,179776,181184,181312,181248,180416,180032,179584,179776,179264,179776,179264,179200,178560,178944,179584,179648,179648,180352,179584,179136,179392,179520,179072,178944,179392,179328,179328,179072,178432,179008,179456,179328,179328,178688,178368,178688,178240,178624,179264,178368,178880,178304,178560,177984,178176,177856,178304,178560,177984,178688,177856,177664,178944,178624,178432,178176,177856,177728,177536,177280,177664,177856,178112,177728,178560,178752,179072,178624,178560,177664,177088,177024,176000,176832,176384,176576,176128,176448,176384,176320,177088,177152,177280,178048,179200,179392,180352,180800,181632,182208,180800,180032,180288,179584,180032,179072,178496,178304,178240,177984,177152,177152,176896,176896,176896,177344,177920,177472,175040,166144,155648,149440,155200,172288,209152,259456,292928,304320,279424,233024,191872,161536,161472,161984,169152,171904,169984,167424,161856,158528,151616,151488,153024,154688,155520,157248,156800,158592,158656,159488,159552,159936,160832,161920,161920,162560,162048,163008,162944,163200,162880,162816,162624,162752,163840,164224,163584,164544,164288,164032,165184,165248,164800,164352,163200,163712,162944,162624,161216,159552,159488,158144,157440,157376,157312,157056,157440,157056,158016,158720,160192,160960,162176,164160,165888,167616,170944,173952,177280,179712,182208,185280,186496,188288,190400,191168,192384,192256,193408,193984,193280,193088,192064,191936,190976,190464,190272,188480,188160,187520,186240,186624,186176,184640,184128,183232,182720,182208,181504,181248,181568,181568,181184,180352,179712,179648,179072,178560,179456,179456,179776,180032,179200,179264,178880,179072,179584,179392,179392,179648,179392,179904,180032,179008,179520,180352,179456,179328,179776,179968,180032,179392,178688,178240,178368,178240,177664,177984,176640,176832,177344,176320,177408,176320,177152,178112,178432,178432,179072,178752,179072,178176,177984,178752,178048,178432,177536,178048,178048,177280,176896,176896,177408,176704,176704,176256,176896,176640,176704,176576,175680,175424,175616,175040,175424,175872,175808,176512,176128,176960,176640,176704,176320,176832,177088,176384,176256,176512,176384,176000,176320,176128,176000,176896,176704,176704,176512,177472,176960,177216,176704,177024,176576,176128,176640,176000,176512,176448,176832,176640,176832,176832,177088,176512,176320,176576,176640,176000,176832,176320,175360,175360,175040,174848,174784,174848,174848,174848,175296,174784,174720,175040,174208,175104,174272,173760,174272,174208,174400,175552,177152,177984,178304,178368,178496,178688,178368,178944,177920,177088,177984,178432,177664,177216,176256,175936,175616,175040,174464,175040,174720,175360,174464,174208,174016,173824,174016,168704,156864,147584,148352,160256,185536,232000,273024,293184,287232,248576,206144,171008,158976,159424,160704,170112,168576,167168,160256,156480,150336,150464,148544,151424,151232,152768,151488,154496,154944,155456,155264,156800,156672,157504,158016,158720,160704,160128,160768,160960,160448,160384,160128,160768,161088,162240,162048,162176,161856,162624,162432,162752,162048,162432,161792,160448,161472,161024,160576,160064,157568,157696,157632,157760,158016,157632,157632,157760,157504,157632,158720,158848,160000,160704,162816,164736,167936,170816,173056,176704,179456,181632,184512,185856,187584,189632,191744,191616,192704,192000,190592,191616,190656,190336,189504,187712,187712,187776,187328,187072,186048,185344,183488,184768,183744,182272,181696,181056,181376,179584,179264,178688,178240,180160,180480,180992,180160,179712,179520,179904,180096,179712,179904,180800,180416,179968,179200,178944,178560,179008,179264,179904,180096,179776,179392,179712,179392,178368,178496,179136,178624,178048,177408,177984,178688,177728,178240,177664,178496,179200,179712,179200,177920,177984,178560,178624,179136,179264,178944,179136,178624,179136,179776,177728,178496,177856,177664,177600,176512,177920,177664,178048,178368,177920,178112,177664,175616,175936,177152,176320,177280,176704,176128,176512,176320,175936,174720,174144,174528,175808,175232,175872,175296,174272,175040,174848,175872,174464,174144,174848,175424,175936,175168,175360,176192,176640,175040,174912,174976,174784,176064,175296,174848,175552,176512,176320,174976,175808,176384,175936,176576,176320,176576,174976,175616,176704,176576,175872,176000,176960,176448,176512,174784,175360,175360,176448,177664,177920,178176,177920,179264,180288,181184,181632,181696,181440,180032,179200,177408,178560,178368,177216,176832,176320,176704,177024,177728,177664,176832,176576,177280,177024,177472,177856,178048,175488,165376,153536,151232,160960,183488,224128,270976,294784,291200,243712,190912,155520,135872,148096,153152,163968,166144,173376,171200,171648,164928,160704,158464,160704,160768,161472,162240,162688,162816,162432,162624,164800,164544,165888,166336,166784,167872,167616,168128,169344,169856,170240,170496,171200,170432,170688,171136,171200,171328,170176,170624,170368,169984,169216,167424,167744,168832,166144,164992,165824,166208,167168,167296,167232,167168,166080,166080,164672,165504,164800,164544,164928,165120,165696,167040,168960,171648,173312,176384,178240,180800,182464,185792,187648,188992,190272,190656,192000,191936,191488,192512,191872,189760,187328,189760,190272,188800,190528,190336,189952,188352,187328,186560,186304,186944,186112,185472,186560,184512,184832,184192,183552,184064,184384,184064,185344,184768,185408,185472,184192,183616,183616,184064,184256,184064,183232,183104,183360,183744,183552,183296,183232,184896,183104,183232,182976,183616,183488,183232,183296,182720,182656,180992,179904,180032,180160,180800,180992,180160,180032,180480,180800,180928,180160,180032,180288,180160,179520,179264,179136,178752,179264,179264,179584,179520,179008,179264,178176,177984,177984,176896,176704,177152,177408,177216,177152,177088,178048,178176,178368,177984,177216,177728,177856,177664,178176,177920,178368,177920,178112,178880,178368,177920,176896,177728,178112,177984,178112,177536,176896,177152,177280,176640,177472,177344,177088,176064,176512,176192,176576,177088,177344,176704,176896,177728,177024,176512,177536,177280,177472,177728,177344,176384,176256,176128,176000,175872,175488,175488,175104,175808,176192,177920,178880,179200,179520,180288,180672,181120,181184,180608,179200,178752,179392,178752,178304,179008,178240,178112,177856,177344,177664,177664,176960,177536,178368,177984,179008,177472,171328,160192,152256,154176,166976,193664,243840,285184,303424,291968,245824,202240,166272,157568,163008,163328,173056,171200,172992,166592,163200,155968,155904,154496,156864,157312,158144,159104,160576,160384,161984,161792,162688,163584,162944,163328,163136,163776,164160,164672,164736,165376,165376,165504,165376,165376,164672,164736,164992,166016,165696,165952,164992,164864,164160,163712,163840,163520,163136,162944,162752,161984,160704,160064,160256,159360,159936,160448,161664,160896,161664,161472,162304,163328,164224,165952,168896,172096,174848,177408,180288,183808,186112,187392,190144,192448,193536,194944,195776,196416,195968,196032,195712,195072,194752,193728,192448,191552,190656,188736,188736,187904,188160,187072,186368,185792,185792,185152,183808,184320,183360,183168,183552,183552,183680,183744,184192,183808,183552,183360,183104,183104,183232,182656,182208,182784,182656,182464,182528,182464,182592,183104,183040,182656,182336,182720,182400,182080,182016,182080,181760,180480,180928,181696,181248,181056,180288,179456,179392,179520,179968,179328,179520,179776,178880,179584,179328,179008,179584,179072,178944,179136,178048,178112,178368,178304,178688,178048,177600,178048,178112,177856,177472,177024,177408,176832,176896,176128,175488,176000,177856,177216,176832,177024,176640,177408,176384,176448,176000,176064,176512,176512,176256,175424,174912,175424,175296,174464,174912,175168,174848,175872,175488,175232,175616,175488,175552,175616,175360,175424,174848,175360,174592,175680,175552,175296,175872,176640,175872,174720,175296,175168,175424,175488,175808,176256,176960,177280,177152,175040,175296,176256,176064,175616,174912,176064,174784,174272,174144,174912,174336,173824,173760,173760,174016,174528,175872,176512,177664,177920,178560,178752,178240,178176,177472,177280,177856,177600,176960,176704,175552,174592,176064,176448,175680,174976,175296,175360,175296,175424,175360,175104,172736,164480,153344,147136,154496,170368,205184,254912,287296,298752,275200,231168,191360,163136,161152,160960,168640,171840,169984,166912,160640,156224,152320,152192,152256,154368,154048,154944,155328,156352,156608,157504,158336,159488,159744,160640,160512,160896,159872,160640,161856,162496,162112,162688,163008,162880,163584,163264,163008,163584,163712,163904,163648,163648,163648,164288,164352,163968,163648,163072,162496,161920,161472,160256,159424,158976,157952,159232,158144,157824,158592,158208,158208,159872,161152,162048,162880,164928,167680,171328,174208,177600,180736,184256,186624,188096,189568,190208,191808,192960,193856,194432,194304,193920,193600,192960,191872,190784,189824,189248,189312,188352,187904,187840,187456,186688,185792,185280,184448,184448,184256,183168,182080,182592,181952,181824,181632,180608,180736,180544,180736,181952,181696,181440,181632,182272,182400,182144,181696,182592,182144,181824,181632,181120,181632,181248,181120,180224,181056,181312,181184,180928,180416,180416,180096,180096,179392,179328,178560,178688,178496,178688,178624,178880,179008,178560,179072,178112,177152,177408,178112,177536,176704,176640,176832,177024,176000,176640,176640,175936,177216,176256,176256,176640,176256,175872,176320,176704,176384,175488,175680,176384,176576,175488,175872,175168,175104,175040,174976,174784,175232,173824,173248,173504,173760,172864,173120,173120,172352,172928,172928,173376,173760,172928,172800,173248,172480,172800,172864,172800,171968,172736,173120,173056,173056,172544,173696,172864,173824,173760,173888,173824,173312,174080,173312,173696,174400,174336,174720,175168,174976,174336,174976,175488,177088,177344,176256,175296,174144,174080,174144,173504,173376,173696,173760,174784,175296,176128,176576,177088,177664,178240,178432,179008,177856,178112,177664,177472,175872,175296,174208,173568,174208,174976,174400,173760,174528,174272,175232,175872,175616,174400,168960,158592,149376,151744,162112,187136,231808,273792,293056,284032,234496,189824,154944,143104,154432,154816,165952,167552,170432,166912,164928,158464,158016,157504,158592,158336,160448,158848,160576,160640,161024,161856,162688,163648,163904,163712,162688,163648,164160,164224,165184,165504,166400,165696,165376,165632,165760,166144,166080,167104,167040,167040,166720,165824,166144,165760,165568,165184,164032,163648,163456,162944,162304,161472,161472,160896,159808,160192,160896,159808,159616,160064,160512,161984,162176,162944,164032,167104,169024,172544,175808,178688,181248,184128,185088,186432,187904,188800,189888,190592,191872,191744,192000,191360,190976,189568,190272,189504,189568,188224,187328,186304,186944,186880,186240,186112,185088,185920,184384,184576,184704,184064,184192,183040,182080,181824,182016,182016,181376,182016,182464,181376,182720,183232,181568,182208,182208,183552,182528,181696,182208,183232,181440,181760,181504,180416,180160,181056,182272,182016,180928,181056,181248,181248,181120,179456,179712,179776,179648,179520,179648,179392,178880,178560,178432,178752,178624,178304,177984,178624,179008,178560,178368,177024,176384,176512,177024,177088,177600,177856,177344,177152,176896,178368,179200,179264,178880,178112,177856,178560,178752,179008,178432,177984,178432,179904,177920,177984,178368,178752,179072,179136,178880,177472,177728,177536,177856,178048,178432,178496,176704,176384,178176,177920,178176,177152,177984,178112,178304,178368,177728,178624,179328,178880,177280,176384,177024,176704,176832,176896,176256,176320,176000,176128,176064,175296,176576,177024,178368,178304,178496,178944,179904,179904,179392,179904,178368,178880,178880,178944,178752,178688,178048,177216,177600,177664,177920,176448,176512,176448,176064,176640,177088,176704,176576,168064,155776,148288,154368,170688,206208,257344,289472,297344,266688,214336,176064,143936,150976,155712,161280,168000,170688,171392,167168,162816,156736,155968,154368,156864,156992,158848,159872,160384,160832,162560,162816,163136,162944,164096,164480,164928,164544,165120,164928,165568,166080,165312,165568,166400,166336,166720,167680,167552,168640,168192,168256,167616,166656,167232,167168,167424,167232,165824,164928,165568,165248,165568,165056,165184,164480,163648,163712,164032,163968,163648,163584,164160,165888,166784,168192,170496,172544,174720,177600,180480,183296,185216,187264,189824,190656,191872,192512,192704,193728,193344,193472,193344,193088,192192,191424,190528,190656,189312,189184,187648,187840,187392,186560,186624,185536,186752,186112,185920,185792,185664,185088,185024,184704,184320,185024,184448,184256,183744,184320,184128,184320,184384,183872,182784,184448,183104,182976,183360,183488,182784,182464,183232,182464,181568,180800,181504,180672,181568,180288,179584,180672,180480,180224,180800,180480,179968,179328,179520,179648,178880,178752,178624,178368,178496,178688,178496,178752,178368,179008,179584,179264,179072,178368,178560,178688,179712,179584,179968,179456,179328,178944,179072,178048,177408,178944,178368,178240,178176,178432,179392,179200,178752,178496,177280,178176,178240,178112,177600,177472,176128,176256,176000,176384,176192,176000,175808,175552,175872,175808,176448,176320,176576,176320,176320,176832,177024,177152,177088,177472,177920,177280,177024,176640,177344,177024,177088,176896,176512,176512,176512,175808,177280,177984,177216,177728,177600,177408,176832,176704,177280,176640,176576,176384,176512,176064,175104,175296,175424,175360,175168,174784,175296,176320,176384,176704,176640,177472,178496,179136,179008,179456,177728,176704,176704,176448,177856,177536,176704,176256,176064,175552,175360,176000,175808,175488,175808,176512,177088,176960,176064,170304,159744,152128,151424,163200,188672,233664,275776,297152,292928,253504,211328,175232,161216,163136,162624,170304,167808,168384,161280,157440,150848,151360,150144,152640,153472,155968,155648,157120,156864,157952,158144,159424,159424,160448,160832,160768,161216,161792,161728,162432,163200,163904,163456,163648,164352,164736,164544,163840,163968,164032,164288,164544,164288,164864,164160,164800,163456,163904,162240,162432,162048,162176,161856,160704,159872,159424,159488,159232,160000,160512,161088,161728,163712,164224,165696,167616,169280,172672,175424,177856,181376,184576,187392,188928,190848,193344,193920,194944,195328,196416,195904,195456,194624,194496,193344,193024,192960,192960,191616,190720,189184,188608,188864,187264,186816,186112,185792,185472,184640,184384,184448,184384,184256,184128,184256,183680,184064,184448,184128,184192,184128,183616,183040,183296,183680,183552,181952,182272,182592,181760,182272,180928,181312,181248,181120,181248,180544,180416,180736,180992,181184,180480,180160,179648,179712,179712,179328,179136,178752,178880,178688,179200,179072,178624,178304,177728,177984,177920,178176,178112,177920,177152,177600,177280,177728,176896,177152,176896,176832,176832,176192,176064,176448,176320,176832,177152,177088,178112,178368,178432,178176,177728,176704,176576,176192,175424,175936,176896,175872,175296,175808,174720,175808,174464,175232,174400,174208,174336,175168,174720,174848,175360,175808,175296,175936,175488,175424,176064,175936,175936,176064,175872,175296,175040,174720,174400,176384,176064,175680,176128,175040,174144,173824,174272,173440,174592,173888,174720,174336,174528,174080,174848,174848,175424,175616,174976,174592,174464,173952,173824,172992,173440,173824,173568,173888,172864,173120,173952,174208,175872,176576,177280,178368,177920,176640,178432,177728,176128,175872,176192,176704,175680,175616,175232,175040,175360,175872,175680,175232,175552,175168,174592,175168,176384,175808,173184,164608,154048,149504,155520,172672,205248,254144,287104,295808,268288,219392,181056,152960,158080,161024,164864,169984,170112,169728,164160,159040,156608,156928,156096,158848,158208,159616,159616,160256,160064,160448,161728,163904,163648,163072,163520,162880,163328,165952,166848,166336,166976,166976,165824,165760,166016,165376,165696,166528,167360,168256,167296,166912,165760,165568,166656,168384,166976,166016,165632,163968,163072,161856,161408,160576,159744,160384,159872,159488,159360,160256,162176,162496,163648,165120,166080,168704,171968,172480,175104,177664,180224,183296,186496,189248,190784,192192,193536,194688
